Frequency (Hz)	10	20	30	40	50	60	70	80	90	100
0.00000e+00	 0	 0	 0	 0	 0	 -180	 -180	 -180	 0	 -180
1.95312e+01	 79.5476	 79.5476	 79.5476	 79.5476	 79.5476	 -131.476	 -340.598	 -4.45991	 171.443	 -23.76
3.90625e+01	 137.464	 137.464	 137.464	 137.464	 137.464	 -19.348	 -551.436	 195.371	 336.312	 132.632
5.85938e+01	 215.55	 215.55	 215.55	 215.55	 215.55	 105.462	 -759.422	 378.58	 496.207	 289.174
7.81250e+01	 345.172	 345.172	 345.172	 345.172	 345.172	 120.228	 -914.714	 548.221	 652.29	 446.239
9.76562e+01	 601.98	 601.98	 601.98	 601.98	 601.98	 239.69	 -1094.23	 731.587	 797.47	 604.871
1.17188e+02	 779.29	 779.29	 779.29	 779.29	 779.29	 403.939	 -1307.51	 921.487	 932.169	 766.015
1.36719e+02	 949.781	 949.781	 949.781	 949.781	 949.781	 602.678	 -1512.45	 1092.47	 1075.63	 929.693
1.56250e+02	 1155.67	 1155.67	 1155.67	 1155.67	 1155.67	 799.641	 -1684.02	 1263.42	 1230.31	 1095.22
1.75781e+02	 1351.94	 1351.94	 1351.94	 1351.94	 1351.94	 980.674	 -1860.33	 1452.33	 1393.01	 1262.07
1.95312e+02	 1534.53	 1534.53	 1534.53	 1534.53	 1534.53	 1173.09	 -2053.19	 1637.18	 1560.37	 1430.09
2.14844e+02	 1732.98	 1732.98	 1732.98	 1732.98	 1732.98	 1378.34	 -2238.4	 1813.32	 1728.88	 1599.08
2.34375e+02	 1931.1	 1931.1	 1931.1	 1931.1	 1931.1	 1568.68	 -2408.29	 2000.73	 1897.82	 1768.65
2.53906e+02	 2117.4	 2117.4	 2117.4	 2117.4	 2117.4	 1758.85	 -2588.26	 2191.41	 2068.55	 1938.55
2.73438e+02	 2313.41	 2313.41	 2313.41	 2313.41	 2313.41	 1957.94	 -2778.49	 2370.88	 2241.15	 2108.81
2.92969e+02	 2512.3	 2512.3	 2512.3	 2512.3	 2512.3	 2148.34	 -2962.58	 2549.06	 2413.57	 2279.46
3.12500e+02	 2700.27	 2700.27	 2700.27	 2700.27	 2700.27	 2336.38	 -3138.92	 2728.8	 2584.77	 2450.29
3.32031e+02	 2894.45	 2894.45	 2894.45	 2894.45	 2894.45	 2536.66	 -3338.62	 2904.45	 2755.45	 2621.19
3.51562e+02	 3093.1	 3093.1	 3093.1	 3093.1	 3093.1	 2733.45	 -3575.2	 3076.38	 2925.89	 2792.23
3.71094e+02	 3282.6	 3282.6	 3282.6	 3282.6	 3282.6	 2923.12	 -3804.71	 3248.1	 3095.51	 2963.44
3.90625e+02	 3475.2	 3475.2	 3475.2	 3475.2	 3475.2	 3118.05	 -3999.62	 3419.5	 3264.48	 3134.66
4.10156e+02	 3672.41	 3672.41	 3672.41	 3672.41	 3672.41	 3311.39	 -4183.95	 3588.31	 3433.99	 3305.8
4.29688e+02	 3863.14	 3863.14	 3863.14	 3863.14	 3863.14	 3500.04	 -4371.61	 3754.57	 3604.7	 3476.9
4.49219e+02	 4054.43	 4054.43	 4054.43	 4054.43	 4054.43	 3694.09	 -4559.88	 3919.7	 3775.96	 3647.89
4.68750e+02	 4249.51	 4249.51	 4249.51	 4249.51	 4249.51	 3890.65	 -4745.75	 4083.89	 3946.95	 3818.51
4.88281e+02	 4440.61	 4440.61	 4440.61	 4440.61	 4440.61	 4081.5	 -4931.7	 4246.5	 4117.34	 3988.5
5.07812e+02	 4630.52	 4630.52	 4630.52	 4630.52	 4630.52	 4271.84	 -5121.09	 4408.1	 4286.48	 4157.72
5.27344e+02	 4823.01	 4823.01	 4823.01	 4823.01	 4823.01	 4462.87	 -5313.82	 4570.05	 4453.39	 4325.92
5.46875e+02	 5013.21	 5013.21	 5013.21	 5013.21	 5013.21	 4651.21	 -5510.17	 4732.81	 4617.71	 4492.58
5.66406e+02	 5201.23	 5201.23	 5201.23	 5201.23	 5201.23	 4840.09	 -5716.9	 4895.67	 4779.75	 4657.12
5.85938e+02	 5390.22	 5390.22	 5390.22	 5390.22	 5390.22	 5031.08	 -5950.64	 5057.99	 4939.67	 4819.01
6.05469e+02	 5577.78	 5577.78	 5577.78	 5577.78	 5577.78	 5219.1	 -6186.9	 5219.67	 5096.94	 4977.46
6.25000e+02	 5762.52	 5762.52	 5762.52	 5762.52	 5762.52	 5403.31	 -6399.82	 5380.49	 5250.42	 5131.3
6.44531e+02	 5946.25	 5946.25	 5946.25	 5946.25	 5946.25	 5586.04	 -6603.62	 5539.86	 5398.51	 5280.01
6.64062e+02	 6128.26	 6128.26	 6128.26	 6128.26	 6128.26	 5767.03	 -6804.99	 5697.27	 5538.43	 5425.13
6.83594e+02	 6306.67	 6306.67	 6306.67	 6306.67	 6306.67	 5945.65	 -7006.64	 5852.93	 5666	 5569.55
7.03125e+02	 6481.76	 6481.76	 6481.76	 6481.76	 6481.76	 6122.01	 -7209.47	 6008.01	 5785.26	 5715.41
7.22656e+02	 6653.51	 6653.51	 6653.51	 6653.51	 6653.51	 6294.58	 -7413.18	 6165.85	 5913.06	 5863.46
7.42188e+02	 6820.85	 6820.85	 6820.85	 6820.85	 6820.85	 6461.61	 -7616.64	 6344.47	 6053.04	 6013.81
7.61719e+02	 6983.48	 6983.48	 6983.48	 6983.48	 6983.48	 6623.47	 -7818.1	 6589.1	 6201.95	 6166.55
7.81250e+02	 7142.6	 7142.6	 7142.6	 7142.6	 7142.6	 6782.01	 -8014.94	 6765.47	 6359.21	 6322.11
8.00781e+02	 7299.92	 7299.92	 7299.92	 7299.92	 7299.92	 6939.17	 -8204.82	 6928.28	 6526.44	 6481.54
8.20312e+02	 7457.26	 7457.26	 7457.26	 7457.26	 7457.26	 7096.82	 -8389.48	 7093.56	 6704.97	 6647.74
8.39844e+02	 7616.5	 7616.5	 7616.5	 7616.5	 7616.5	 7256.74	 -8575.17	 7264.92	 6890.6	 6827.11
8.59375e+02	 7779.5	 7779.5	 7779.5	 7779.5	 7779.5	 7420.39	 -8763.56	 7440.37	 7075.58	 7025.59
8.78906e+02	 7947.41	 7947.41	 7947.41	 7947.41	 7947.41	 7588.25	 -8951.71	 7616.5	 7256.5	 7226.48
8.98438e+02	 8119.43	 8119.43	 8119.43	 8119.43	 8119.43	 7759.28	 -9138.02	 7794.05	 7435.52	 7421.48
9.17969e+02	 8294.38	 8294.38	 8294.38	 8294.38	 8294.38	 7933.35	 -9323.66	 7973.97	 7617.35	 7612.56
9.37500e+02	 8473.26	 8473.26	 8473.26	 8473.26	 8473.26	 8112.47	 -9509.23	 8153.42	 7801.75	 7797.98
9.57031e+02	 8656.17	 8656.17	 8656.17	 8656.17	 8656.17	 8296.19	 -9692.88	 8332.3	 7984.21	 7982.95
9.76562e+02	 8839.24	 8839.24	 8839.24	 8839.24	 8839.24	 8479.77	 -9874.24	 8513.9	 8166.93	 8170.5
9.96094e+02	 9023.39	 9023.39	 9023.39	 9023.39	 9023.39	 8664.58	 -10056.1	 8696.64	 8353.82	 8355.96
1.01562e+03	 9212.99	 9212.99	 9212.99	 9212.99	 9212.99	 8853.64	 -10237.7	 8876.9	 8538.96	 8539.58
1.03516e+03	 9401.71	 9401.71	 9401.71	 9401.71	 9401.71	 9040.36	 -10414.2	 9058.55	 8720.48	 8726.75
1.05469e+03	 9587.21	 9587.21	 9587.21	 9587.21	 9587.21	 9225.9	 -10587.5	 9244.44	 8906.46	 8914.62
1.07422e+03	 9780.12	 9780.12	 9780.12	 9780.12	 9780.12	 9420.88	 -10763.3	 9427.8	 9095.55	 9098.84
1.09375e+03	 9974.1	 9974.1	 9974.1	 9974.1	 9974.1	 9614.3	 -10929.5	 9609.18	 9278.45	 9285.66
1.11328e+03	 10159.5	 10159.5	 10159.5	 10159.5	 10159.5	 9799.49	 -11081	 9797.51	 9462.8	 9476.74
1.13281e+03	 10352.6	 10352.6	 10352.6	 10352.6	 10352.6	 9994.18	 -11246.6	 9987.05	 9656.25	 9663.89
1.15234e+03	 10552	 10552	 10552	 10552	 10552	 10191.4	 -11405.5	 10169.4	 9843.69	 9851
1.17188e+03	 10737.5	 10737.5	 10737.5	 10737.5	 10737.5	 10375.6	 -11560.5	 10358.8	 10026.3	 10045
1.19141e+03	 10928.3	 10928.3	 10928.3	 10928.3	 10928.3	 10569.2	 -11736.3	 10558.2	 10221.1	 10236.1
1.21094e+03	 11133	 11133	 11133	 11133	 11133	 10773.9	 -11908.3	 10743.3	 10415.3	 10423.8
1.23047e+03	 11319.4	 11319.4	 11319.4	 11319.4	 11319.4	 10958	 -12067.7	 10932.4	 10596.8	 10619.1
1.25000e+03	 11506	 11506	 11506	 11506	 11506	 11147	 -12242.9	 11147.7	 10789.4	 10814.1
1.26953e+03	 11716.2	 11716.2	 11716.2	 11716.2	 11716.2	 11357.3	 -12421.3	 11334.8	 10992.6	 11001.6
1.28906e+03	 11904.2	 11904.2	 11904.2	 11904.2	 11904.2	 11541.8	 -12577.7	 11522.9	 11173.5	 11196.3
1.30859e+03	 12084.9	 12084.9	 12084.9	 12084.9	 12084.9	 11724.4	 -12745.3	 11755	 11359.6	 11394.4
1.32812e+03	 12300.3	 12300.3	 12300.3	 12300.3	 12300.3	 11943.4	 -12928	 11935.7	 11574.1	 11581.2
1.34766e+03	 12491.7	 12491.7	 12491.7	 12491.7	 12491.7	 12129.6	 -13078.4	 12119.1	 11755.6	 11773.3
1.36719e+03	 12665.6	 12665.6	 12665.6	 12665.6	 12665.6	 12304.3	 -13233.2	 12352.2	 11931.4	 11974.7
1.38672e+03	 12883.6	 12883.6	 12883.6	 12883.6	 12883.6	 12528.5	 -13420.1	 12528.4	 12159.2	 12161.5
1.40625e+03	 13081.6	 13081.6	 13081.6	 13081.6	 13081.6	 12718.9	 -13566.6	 12702.8	 12343.6	 12349.6
1.42578e+03	 13248.9	 13248.9	 13248.9	 13248.9	 13248.9	 12885.7	 -13714.5	 12935.3	 12508	 12554.3
1.44531e+03	 13463.1	 13463.1	 13463.1	 13463.1	 13463.1	 13111.7	 -13907.4	 13114.4	 12749.9	 12742.9
1.46484e+03	 13673.5	 13673.5	 13673.5	 13673.5	 13673.5	 13311.2	 -14065.7	 13280.5	 12938.5	 12926.4
1.48438e+03	 13834.9	 13834.9	 13834.9	 13834.9	 13834.9	 13471.1	 -14204	 13511.8	 13092.1	 13133.7
1.50391e+03	 14035	 14035	 14035	 14035	 14035	 13686.7	 -14400.7	 13700.2	 13351.9	 13326.4
1.52344e+03	 14267.5	 14267.5	 14267.5	 14267.5	 14267.5	 13904.9	 -14579.4	 13859.2	 13539.3	 13505.1
1.54297e+03	 14423.3	 14423.3	 14423.3	 14423.3	 14423.3	 14058.5	 -14695.6	 14081.8	 13683.7	 13713.2
1.56250e+03	 14598.6	 14598.6	 14598.6	 14598.6	 14598.6	 14245.2	 -14894.2	 14290	 13982.5	 13913.2
1.58203e+03	 14863.9	 14863.9	 14863.9	 14863.9	 14863.9	 14501.5	 -15092.3	 14442	 14140.9	 14086.9
1.60156e+03	 15014	 15014	 15014	 15014	 15014	 14648.9	 -15179	 14631.6	 14279.1	 14292.4
1.62109e+03	 15165.7	 15165.7	 15165.7	 15165.7	 15165.7	 14801.2	 -15382	 14886	 14361.7	 14504.1
1.64062e+03	 15463.3	 15463.3	 15463.3	 15463.3	 15463.3	 15100.4	 -15594	 15030.1	 14379.2	 14672.8
1.66016e+03	 15606.6	 15606.6	 15606.6	 15606.6	 15606.6	 15241.1	 -15652	 15169	 14513.2	 14870.2
1.67969e+03	 15744.1	 15744.1	 15744.1	 15744.1	 15744.1	 15375	 -15864.8	 15487.9	 14623.9	 15099.2
1.69922e+03	 15706.4	 15706.4	 15706.4	 15706.4	 15706.4	 15342.8	 -16084.9	 15623.2	 14616.8	 15262.5
1.71875e+03	 15841	 15841	 15841	 15841	 15841	 15475.5	 -16125.3	 15741.2	 14746	 15446
1.73828e+03	 15970.5	 15970.5	 15970.5	 15970.5	 15970.5	 15601.3	 -15988.2	 15732.2	 14859	 15697.1
1.75781e+03	 15954.7	 15954.7	 15954.7	 15954.7	 15954.7	 15588.8	 -15853.1	 15859.5	 14858.7	 15855.1
1.77734e+03	 16076.8	 16076.8	 16076.8	 16076.8	 16076.8	 15711.2	 -15870.9	 15972.3	 14980.3	 16021.9
1.79688e+03	 16201.2	 16201.2	 16201.2	 16201.2	 16201.2	 15832.3	 -15752.5	 15974.4	 15092	 16296.3
1.81641e+03	 16209.4	 16209.4	 16209.4	 16209.4	 16209.4	 15839.9	 -15621.8	 16096.2	 15106.6	 16449
1.83594e+03	 16314.1	 16314.1	 16314.1	 16314.1	 16314.1	 15948.4	 -15576	 16210.1	 15217.2	 16602
1.85547e+03	 16434.5	 16434.5	 16434.5	 16434.5	 16434.5	 16066.2	 -15514.2	 16215.3	 15327.3	 16896.4
1.87500e+03	 16468.3	 16468.3	 16468.3	 16468.3	 16468.3	 16094.7	 -15388.8	 16331.3	 15356.8	 17043.8
1.89453e+03	 16552.6	 16552.6	 16552.6	 16552.6	 16552.6	 16186.7	 -15310.2	 16446.3	 15455.8	 17187
1.91406e+03	 16669.3	 16669.3	 16669.3	 16669.3	 16669.3	 16301.4	 -15272.3	 16461.2	 15564.3	 17498.1
1.93359e+03	 16725	 16725	 16725	 16725	 16725	 16350	 -15152.8	 16566.2	 15608	 17639.2
1.95312e+03	 16792.4	 16792.4	 16792.4	 16792.4	 16792.4	 16426.4	 -15064.5	 16679.5	 15695.5	 17775.8
1.97266e+03	 16905.1	 16905.1	 16905.1	 16905.1	 16905.1	 16537.7	 -15029	 16715.4	 15802.1	 17743.2
1.99219e+03	 16975.9	 16975.9	 16975.9	 16975.9	 16975.9	 16601.9	 -14915	 16803.9	 15858.2	 17875.4
2.01172e+03	 17033.6	 17033.6	 17033.6	 17033.6	 17033.6	 16667.3	 -14820.5	 16913.5	 15936.1	 18007
2.03125e+03	 17141.9	 17141.9	 17141.9	 17141.9	 17141.9	 16774.8	 -14785.6	 16967	 16040.5	 17994.6
2.05078e+03	 17222	 17222	 17222	 17222	 17222	 16849.7	 -14677.3	 17044.3	 16107.1	 18112.2
2.07031e+03	 17276.1	 17276.1	 17276.1	 17276.1	 17276.1	 16909.5	 -14578.2	 17150	 16177.5	 18239.7
2.08984e+03	 17379.5	 17379.5	 17379.5	 17379.5	 17379.5	 17012.6	 -14539.7	 17213.8	 16279.1	 18255.8
2.10938e+03	 17465.3	 17465.3	 17465.3	 17465.3	 17465.3	 17094.4	 -14439.6	 17285.1	 16354.1	 18349.7
2.12891e+03	 17519.7	 17519.7	 17519.7	 17519.7	 17519.7	 17152.6	 -14339.2	 17387.8	 16420	 18473.5
2.14844e+03	 17618	 17618	 17618	 17618	 17618	 17251.2	 -14290.7	 17459	 16518	 18521.8
2.16797e+03	 17707	 17707	 17707	 17707	 17707	 17337.2	 -14199.7	 17526	 16598.9	 18588.3
2.18750e+03	 17763.9	 17763.9	 17763.9	 17763.9	 17763.9	 17396.5	 -14100.2	 17626.1	 16663.5	 18708.2
2.20703e+03	 17857.1	 17857.1	 17857.1	 17857.1	 17857.1	 17490.5	 -14043.4	 17703.3	 16757.6	 18779.2
2.22656e+03	 17948	 17948	 17948	 17948	 17948	 17579.1	 -13958.7	 17767.5	 16842.1	 18828.3
2.24609e+03	 18008.5	 18008.5	 18008.5	 18008.5	 18008.5	 17640.8	 -13859.9	 17864.4	 16907.5	 18943.7
2.26562e+03	 18096.8	 18096.8	 18096.8	 18096.8	 18096.8	 17730.4	 -13796.7	 17946.3	 16997.8	 19027.4
2.28516e+03	 18188.6	 18188.6	 18188.6	 18188.6	 18188.6	 17820.3	 -13717.9	 18009.8	 17084.3	 19069.8
2.30469e+03	 18253.1	 18253.1	 18253.1	 18253.1	 18253.1	 17885.2	 -13619.9	 18103.2	 17151.8	 19180.2
2.32422e+03	 18337.1	 18337.1	 18337.1	 18337.1	 18337.1	 17970.8	 -13549.9	 18188.2	 17238.6	 19270.7
2.34375e+03	 18429	 18429	 18429	 18429	 18429	 18061.3	 -13476.2	 18252.7	 17326.1	 19312.9
2.36328e+03	 18497.4	 18497.4	 18497.4	 18497.4	 18497.4	 18129.6	 -13380.1	 18342.5	 17395.9	 19417.6
2.38281e+03	 18577.9	 18577.9	 18577.9	 18577.9	 18577.9	 18211.6	 -13304.5	 18429.4	 17479.9	 19511.7
2.40234e+03	 18669.3	 18669.3	 18669.3	 18669.3	 18669.3	 18302.1	 -13233.5	 18495.8	 17567.8	 19557.3
2.42188e+03	 18741.4	 18741.4	 18741.4	 18741.4	 18741.4	 18373.6	 -13139.8	 18582.3	 17639.9	 19655.7
2.44141e+03	 18819.2	 18819.2	 18819.2	 18819.2	 18819.2	 18452.9	 -13060.4	 18670.2	 17721.5	 19751.8
2.46094e+03	 18909.7	 18909.7	 18909.7	 18909.7	 18909.7	 18542.8	 -12990.5	 18738.9	 17809.3	 19802.5
2.48047e+03	 18984.9	 18984.9	 18984.9	 18984.9	 18984.9	 18617.3	 -12899.2	 18822.6	 17883.6	 19894.6
2.50000e+03	 19060.8	 19060.8	 19060.8	 19060.8	 19060.8	 18694.6	 -12816.9	 18910.8	 17963.3	 19991.5
2.51953e+03	 19150.2	 19150.2	 19150.2	 19150.2	 19150.2	 18783.6	 -12747.3	 18981.9	 18050.8	 20048.1
2.53906e+03	 19228	 19228	 19228	 19228	 19228	 18860.7	 -12658.4	 19063.2	 18127	 20134.2
2.55859e+03	 19302.8	 19302.8	 19302.8	 19302.8	 19302.8	 18936.6	 -12574	 19151.4	 18205.3	 20231
2.57812e+03	 19390.8	 19390.8	 19390.8	 19390.8	 19390.8	 19024.5	 -12503.8	 19224.8	 18292.3	 20293.4
2.59766e+03	 19470.7	 19470.7	 19470.7	 19470.7	 19470.7	 19103.6	 -12417.3	 19304	 18370.3	 20374.4
2.61719e+03	 19545	 19545	 19545	 19545	 19545	 19178.8	 -12331.5	 19392	 18447.6	 20470.6
2.63672e+03	 19631.6	 19631.6	 19631.6	 19631.6	 19631.6	 19265.4	 -12260	 19467.5	 18533.8	 20538.3
2.65625e+03	 19713.1	 19713.1	 19713.1	 19713.1	 19713.1	 19346.2	 -12176	 19545.2	 18613.4	 20615.1
2.67578e+03	 19787.4	 19787.4	 19787.4	 19787.4	 19787.4	 19421.2	 -12089.4	 19632.5	 18690	 20710.2
2.69531e+03	 19872.5	 19872.5	 19872.5	 19872.5	 19872.5	 19506.6	 -12016.3	 19710	 18775.3	 20782.7
2.71484e+03	 19955.2	 19955.2	 19955.2	 19955.2	 19955.2	 19588.6	 -11934.4	 19786.6	 18856.2	 20856.3
2.73438e+03	 20029.9	 20029.9	 20029.9	 20029.9	 20029.9	 19663.8	 -11847.5	 19873.1	 18932.5	 20950
2.75391e+03	 20113.6	 20113.6	 20113.6	 20113.6	 20113.6	 19747.8	 -11772.7	 19952.2	 19016.9	 21026.4
2.77344e+03	 20197.1	 20197.1	 20197.1	 20197.1	 20197.1	 19830.8	 -11692.5	 20028.2	 19098.8	 21097.9
2.79297e+03	 20272.4	 20272.4	 20272.4	 20272.4	 20272.4	 19906.4	 -11605.7	 20113.8	 19175.2	 21189.9
2.81250e+03	 20354.8	 20354.8	 20354.8	 20354.8	 20354.8	 19989.2	 -11529.3	 20194.2	 19258.5	 21269.5
2.83203e+03	 20438.9	 20438.9	 20438.9	 20438.9	 20438.9	 20072.8	 -11450.5	 20270	 19341.2	 21339.9
2.85156e+03	 20515	 20515	 20515	 20515	 20515	 20149	 -11363.9	 20354.6	 19418	 21430
2.87109e+03	 20596.2	 20596.2	 20596.2	 20596.2	 20596.2	 20230.7	 -11285.9	 20436.1	 19500.3	 21512.1
2.89062e+03	 20680.5	 20680.5	 20680.5	 20680.5	 20680.5	 20314.6	 -11208.2	 20511.9	 19583.4	 21582.2
2.91016e+03	 20757.5	 20757.5	 20757.5	 20757.5	 20757.5	 20391.6	 -11122.3	 20595.5	 19660.8	 21670.3
2.92969e+03	 20837.8	 20837.8	 20837.8	 20837.8	 20837.8	 20472.3	 -11042.8	 20677.8	 19742.1	 21754.1
2.94922e+03	 20922.1	 20922.1	 20922.1	 20922.1	 20922.1	 20556.3	 -10965.8	 20753.9	 19825.5	 21824.8
2.96875e+03	 21000	 21000	 21000	 21000	 21000	 20634.2	 -10880.6	 20836.5	 19903.5	 21910.8
2.98828e+03	 21079.5	 21079.5	 21079.5	 21079.5	 21079.5	 20714.1	 -10800	 20919.3	 19984.1	 21995.9
3.00781e+03	 21163.6	 21163.6	 21163.6	 21163.6	 21163.6	 20798	 -10723.2	 20995.9	 20067.5	 22067.5
3.02734e+03	 21242.4	 21242.4	 21242.4	 21242.4	 21242.4	 20876.7	 -10638.9	 21077.6	 20146.2	 22151.5
3.04688e+03	 21321.3	 21321.3	 21321.3	 21321.3	 21321.3	 20956	 -10557.2	 21160.8	 20226.2	 22237.5
3.06641e+03	 21405.1	 21405.1	 21405.1	 21405.1	 21405.1	 21039.7	 -10480.5	 21238	 20309.5	 22310.3
3.08594e+03	 21484.7	 21484.7	 21484.7	 21484.7	 21484.7	 21119.2	 -10397.1	 21318.8	 20388.9	 22392.4
3.10547e+03	 21563.2	 21563.2	 21563.2	 21563.2	 21563.2	 21198	 -10314.7	 21402.2	 20468.4	 22478.9
3.12500e+03	 21646.6	 21646.6	 21646.6	 21646.6	 21646.6	 21281.4	 -10237.8	 21480.1	 20551.4	 22553
3.14453e+03	 21726.9	 21726.9	 21726.9	 21726.9	 21726.9	 21361.5	 -10155.2	 21560.1	 20631.4	 22633.5
3.16406e+03	 21805.2	 21805.2	 21805.2	 21805.2	 21805.2	 21440.1	 -10072.3	 21643.6	 20710.6	 22720.1
3.18359e+03	 21888.1	 21888.1	 21888.1	 21888.1	 21888.1	 21523	 -9994.98	 21722.1	 20793.4	 22795.7
3.20312e+03	 21969.1	 21969.1	 21969.1	 21969.1	 21969.1	 21603.8	 -9913.3	 21801.6	 20873.9	 22874.8
3.22266e+03	 22047.3	 22047.3	 22047.3	 22047.3	 22047.3	 21682.2	 -9830.01	 21884.9	 20952.9	 22961.3
3.24219e+03	 22129.7	 22129.7	 22129.7	 22129.7	 22129.7	 21764.7	 -9752.18	 21964.1	 21035.4	 23038.4
3.26172e+03	 22211.1	 22211.1	 22211.1	 22211.1	 22211.1	 21846	 -9671.29	 22043.2	 21116.3	 23116.3
3.28125e+03	 22289.4	 22289.4	 22289.4	 22289.4	 22289.4	 21924.5	 -9587.84	 22126.2	 21195.2	 23202.4
3.30078e+03	 22371.3	 22371.3	 22371.3	 22371.3	 22371.3	 22006.4	 -9509.4	 22206	 21277.3	 23280.9
3.32031e+03	 22453.1	 22453.1	 22453.1	 22453.1	 22453.1	 22088.1	 -9429.19	 22284.8	 21358.6	 23357.9
3.33984e+03	 22531.6	 22531.6	 22531.6	 22531.6	 22531.6	 22166.7	 -9345.73	 22367.6	 21437.6	 23443.5
3.35938e+03	 22612.9	 22612.9	 22612.9	 22612.9	 22612.9	 22248.2	 -9266.66	 22447.9	 21519.3	 23523.3
3.37891e+03	 22695.1	 22695.1	 22695.1	 22695.1	 22695.1	 22330.2	 -9187.02	 22526.5	 21600.9	 23599.7
3.39844e+03	 22773.8	 22773.8	 22773.8	 22773.8	 22773.8	 22409	 -9103.66	 22608.9	 21680	 23684.7
3.41797e+03	 22854.6	 22854.6	 22854.6	 22854.6	 22854.6	 22490	 -9023.98	 22689.8	 21761.3	 23765.6
3.43750e+03	 22936.9	 22936.9	 22936.9	 22936.9	 22936.9	 22572.2	 -8944.79	 22768.3	 21843.1	 23841.6
3.45703e+03	 23015.9	 23015.9	 23015.9	 23015.9	 23015.9	 22651.2	 -8861.63	 22850.3	 21922.4	 23925.8
3.47656e+03	 23096.4	 23096.4	 23096.4	 23096.4	 23096.4	 22731.8	 -8781.35	 22931.6	 22003.3	 24007.7
3.49609e+03	 23178.8	 23178.8	 23178.8	 23178.8	 23178.8	 22814.1	 -8702.49	 23010.1	 22085.3	 24083.7
3.51562e+03	 23258.1	 23258.1	 23258.1	 23258.1	 23258.1	 22893.5	 -8619.62	 23091.7	 22164.8	 24167
3.53516e+03	 23338.2	 23338.2	 23338.2	 23338.2	 23338.2	 22973.7	 -8538.78	 23173.3	 22245.4	 24249.7
3.55469e+03	 23420.6	 23420.6	 23420.6	 23420.6	 23420.6	 23056	 -8460.12	 23251.9	 22327.5	 24325.8
3.57422e+03	 23500.3	 23500.3	 23500.3	 23500.3	 23500.3	 23135.8	 -8377.62	 23333.1	 22407.2	 24408.2
3.59375e+03	 23580	 23580	 23580	 23580	 23580	 23215.7	 -8296.28	 23415.1	 22487.5	 24491.6
3.61328e+03	 23662.4	 23662.4	 23662.4	 23662.4	 23662.4	 23297.9	 -8217.7	 23493.8	 22569.6	 24568.1
3.63281e+03	 23742.5	 23742.5	 23742.5	 23742.5	 23742.5	 23378	 -8135.62	 23574.6	 22649.6	 24649.5
3.65234e+03	 23822	 23822	 23822	 23822	 23822	 23457.7	 -8053.86	 23656.7	 22729.6	 24733.4
3.67188e+03	 23904.1	 23904.1	 23904.1	 23904.1	 23904.1	 23539.8	 -7975.23	 23735.8	 22811.6	 24810.4
3.69141e+03	 23984.6	 23984.6	 23984.6	 23984.6	 23984.6	 23620.2	 -7893.61	 23816.1	 22892	 24890.9
3.71094e+03	 24063.9	 24063.9	 24063.9	 24063.9	 24063.9	 23699.7	 -7811.51	 23898.4	 22971.8	 24975
3.73047e+03	 24145.9	 24145.9	 24145.9	 24145.9	 24145.9	 23781.7	 -7732.72	 23977.7	 23053.7	 25052.7
3.75000e+03	 24226.7	 24226.7	 24226.7	 24226.7	 24226.7	 23862.4	 -7651.57	 24057.7	 23134.3	 25132.4
3.76953e+03	 24305.9	 24305.9	 24305.9	 24305.9	 24305.9	 23941.8	 -7569.23	 24140	 23214	 25216.6
3.78906e+03	 24387.6	 24387.6	 24387.6	 24387.6	 24387.6	 24023.5	 -7490.2	 24219.6	 23295.7	 25295
3.80859e+03	 24468.8	 24468.8	 24468.8	 24468.8	 24468.8	 24104.6	 -7409.51	 24299.4	 23376.6	 25374
3.82812e+03	 24548	 24548	 24548	 24548	 24548	 24183.9	 -7327.01	 24381.5	 23456.2	 25458.1
3.84766e+03	 24629.4	 24629.4	 24629.4	 24629.4	 24629.4	 24265.4	 -7247.66	 24461.6	 23537.7	 25537.3
